 -60.27
 -58.93
 -57.29
 -55.57
 -53.83
 -51.93
 -50.04
 -48.06
 -45.99
 -43.86
 -41.65
 -39.39
 -36.96
 -34.54
 -31.98
 -29.32
 -26.70
 -23.86
 -21.03
 -18.17
 -15.23
 -12.09
  -9.02
  -5.78
  -1.69
  -0.01
   4.04
   6.96
   9.81
  12.51
  15.20
  18.11
  20.81
  23.72
  26.26
  29.06
  31.59
  34.25
  36.59
  39.03
  41.28
  43.56
  45.74
  47.65
  49.49
  51.56
  53.36
  55.03
  56.73
  58.36
  59.59
