 -62.78
 -61.37
 -59.95
 -58.55
 -57.11
 -55.68
 -54.24
 -52.85
 -51.44
 -50.05
 -48.64
 -47.13
 -45.59
 -44.07
 -42.54
 -41.02
 -39.54
 -38.06
 -36.58
 -35.10
 -33.62
 -32.09
 -30.56
 -29.03
 -27.51
 -25.98
 -24.52
 -23.07
 -21.61
 -20.15
 -18.69
 -17.24
 -15.77
 -14.31
 -12.85
 -11.39
  -9.92
  -8.46
  -7.00
  -5.28
  -3.55
  -1.83
  -0.10
   1.62
   3.35
   4.90
   6.45
   8.00
   9.56
  11.11
  12.66
  14.20
  15.56
  16.90
  18.25
  19.60
  20.95
  22.28
  23.87
  25.45
  27.03
  28.60
  30.18
  31.76
  33.24
  34.72
  36.20
  37.68
  39.16
  40.63
  42.11
  43.59
  45.06
  46.54
  48.03
  49.53
  51.02
  52.51
  54.00
  55.49
  56.98
  58.46
  59.97
  61.45
  62.96
  64.44
  65.92
  67.40
  68.88
  70.35
